Tempo(s),E[N],E[W],ErroLittle
10,5.066919,2.664061,-1.170023
20,8.901003,5.260361,-3.160878
30,12.659833,5.173545,0.606609
40,16.677536,7.150064,0.438794
50,19.864262,9.199608,0.182695
60,20.776793,10.564614,-0.699950
70,21.957193,11.437761,-1.328427
80,23.424548,12.209486,-1.035585
90,24.479909,12.499220,-0.640868
100,24.704773,11.435277,2.444171
110,24.174692,12.691094,-0.462056
120,24.182738,12.360729,-0.740658
130,24.566045,11.504992,1.215947
140,24.827412,13.463858,-2.460316
150,24.963135,12.666554,-0.996074
160,25.769403,12.833147,-1.333113
170,26.914628,11.730546,1.942954
180,27.444395,11.833460,2.696195
190,27.812533,12.831655,0.803128
200,28.378864,15.162434,-3.145974
210,28.776128,14.076953,-0.502474
220,29.031530,13.346897,1.321549
230,29.326636,13.661939,1.081205
240,29.680847,13.558403,1.494294
250,30.094944,13.614496,1.838962
260,30.294507,13.728025,1.801199
270,30.471062,15.259084,-1.169211
280,30.720564,15.266432,-0.976441
290,30.931916,15.760529,-1.575026
300,31.183439,14.511403,1.243235
310,31.351865,15.384914,-0.406796
320,31.341485,19.009396,-7.431514
330,31.235309,16.369346,-2.125782
340,31.105045,14.658236,1.072242
350,30.799263,15.239316,-0.319340
360,30.590137,14.498368,0.796283
370,30.487325,14.069642,1.626536
380,30.153842,15.260509,-1.146201
390,29.948460,14.502448,0.280473
400,29.629554,16.223810,-3.435405
410,29.449645,15.160455,-1.422327
420,29.315198,15.193640,-1.573031
430,29.239926,14.759877,-0.753753
440,29.242664,14.538078,-0.578998
450,29.279249,15.282540,-1.826730
460,29.310364,14.564248,-0.195436
470,29.393519,13.918251,1.202329
480,29.501362,15.717839,-2.571543
490,29.674270,15.783573,-2.526885
500,29.858577,14.274600,0.718514
510,29.985139,13.355337,2.771576
520,30.066702,15.275967,-1.119619
530,30.215687,14.432733,0.600608
540,30.300661,16.520979,-3.752106
550,30.418776,13.934225,1.860651
560,30.427464,14.538855,0.630252
570,30.345140,14.764716,0.220894
580,30.197550,13.976286,1.664771
590,30.177183,15.443056,-1.593845
600,30.271889,14.837838,-0.193081
610,30.406235,14.470839,0.472260
620,30.637206,14.533518,0.585670
630,30.847815,14.904427,0.117595
640,31.041545,16.460830,-2.952601
650,31.282342,15.663608,-1.191558
660,31.493561,17.709320,-5.202662
670,31.654934,15.569391,-0.620683
680,31.725066,14.555381,1.528373
690,31.867538,15.196027,0.441118
700,32.007201,14.804533,1.352944
710,32.165594,15.108993,0.849507
720,32.294128,15.196608,0.834974
730,32.416937,16.568237,-1.779109
740,32.572946,15.298017,1.075085
750,32.693337,15.460262,0.797705
760,32.847116,16.840642,-2.025249
770,33.076458,19.042346,-6.288300
780,33.439320,15.881797,0.481199
790,33.872635,16.712256,-0.812968
800,34.341247,16.963140,-0.875149
810,34.778736,16.817186,-0.223100
820,35.197106,16.385300,1.116987
830,35.665381,17.413794,-0.608236
840,36.218125,18.681668,-2.769750
850,36.648407,17.811806,-0.477520
860,37.232563,18.342485,-0.988524
870,37.755516,17.889018,0.419419
880,38.203763,19.309957,-1.930088
890,38.717068,18.380908,0.324383
900,39.260265,16.129475,5.710432
910,39.619460,19.290622,-0.612268
920,40.070629,18.532911,1.375050
930,40.478109,19.472710,-0.121304
940,40.877522,20.029028,-0.817025
950,41.250608,20.229617,-0.841464
960,41.681379,19.710336,0.524918
970,42.153092,19.632404,1.349960
980,42.550583,19.910726,1.055864
990,42.908963,20.365405,0.473802
1000,43.202416,19.518062,2.618209
1010,43.440489,19.954686,1.943596
1020,43.654487,21.879689,-1.727952
1030,43.832006,20.352265,1.575172
1040,43.987950,22.091715,-1.862020
1050,44.129604,21.275369,-0.082125
1060,44.227179,22.096387,-1.785930
1070,44.371047,21.823242,-0.934140
1080,44.451746,21.913490,-0.826223
1090,44.437715,21.146801,0.858592
1100,44.422856,22.467054,-1.995435
1110,44.501137,21.224054,0.533420
1120,44.570593,21.508840,0.074325
1130,44.661793,22.007673,-0.852386
1140,44.829296,22.510107,-1.775749
1150,44.996042,22.181781,-0.823797
1160,45.138828,23.399978,-3.239715
1170,45.327208,22.501730,-1.297126
1180,45.547513,22.581333,-1.236742
1190,45.771946,21.299984,1.766226
1200,45.947994,22.550186,-0.570740
1210,46.070965,23.056304,-1.308743
1220,46.163219,23.323369,-1.868398
1230,46.306444,22.873622,-0.722655
1240,46.469837,21.241420,2.819972
1250,46.561374,22.713600,-0.117739
1260,46.666034,22.431196,0.540357
1270,46.761249,22.963267,-0.372140
1280,46.860784,22.518184,0.560106
1290,46.948520,21.759837,2.313649
1300,47.005804,22.451898,0.948432
1310,47.053295,22.390304,1.224698
1320,47.110206,21.289593,3.501436
1330,47.159917,22.408644,1.298658
1340,47.247298,22.847759,0.478832
1350,47.364877,22.348265,1.568876
1360,47.457202,21.926714,2.609419
1370,47.539849,20.367514,5.853874
1380,47.600851,23.110935,0.391722
1390,47.613184,23.680826,-0.803549
1400,47.695327,23.627704,-0.600648
1410,47.803115,22.821740,1.233546
1420,47.954038,24.846300,-2.801595
1430,48.094888,24.296157,-1.458952
1440,48.248004,24.091780,-0.937881
1450,48.457342,24.265479,-1.095992
1460,48.682789,23.395525,0.851245
1470,48.904045,24.871127,-1.993412
1480,49.142402,22.741369,2.635083
1490,49.345562,23.216076,1.882207
1500,49.571083,23.287254,1.916000
1510,49.772382,23.917643,0.718880
1520,49.984525,24.545785,-0.379837
1530,50.158280,27.074149,-5.330468
1540,50.271906,25.038067,-1.017401
1550,50.347816,23.766536,1.747220
1560,50.385112,24.384772,0.477944
1570,50.424961,25.262747,-1.344533
1580,50.468874,25.200384,-1.254321
1590,50.549715,21.937538,5.572284
1600,50.602569,26.082326,-2.828405
1610,50.637358,24.147236,1.207105
1620,50.757324,25.588570,-1.670815
1630,50.898487,24.977944,-0.281005
1640,51.092080,25.320084,-0.995480
1650,51.317676,24.294982,1.270564
1660,51.584610,25.708823,-1.420357
1670,51.933987,24.438799,1.534191
1680,52.289112,27.144239,-3.621200
1690,52.651363,25.958128,-0.899910
1700,52.979117,24.480354,2.536153
1710,53.312286,24.887116,2.000513
1720,53.642432,26.974343,-1.998280
1730,53.970094,24.754627,2.849265
1740,54.293336,24.871980,3.023327
1750,54.589587,25.168619,2.800616
1760,54.885373,27.074879,-0.841997
1770,55.206129,26.985170,-0.470970
1780,55.583412,26.465022,0.987920
1790,55.905414,24.852987,4.700019
1800,56.166309,26.988957,0.665369
1810,56.395176,28.783854,-2.812990
1820,56.677527,25.572761,4.067504
1830,56.952053,25.551474,4.316853
1840,57.290037,28.429521,-1.418106
1850,57.651352,30.852306,-5.996186
1860,58.013802,27.310854,1.678133
1870,58.374165,28.850840,-1.175067
1880,58.712232,29.466277,-2.110792
1890,59.052452,29.534313,-1.857191
1900,59.391351,29.549421,-1.619793
1910,59.791313,27.442068,3.081130
1920,60.195889,30.580625,-3.068967
1930,60.587555,30.028342,-1.517230
1940,61.036365,28.902266,1.268317
1950,61.462379,30.925817,-2.449743
1960,61.859747,28.880979,2.189969
1970,62.277777,28.220472,4.091964
1980,62.659073,30.819249,-0.943215
1990,63.048101,29.198267,2.803661
2000,63.453774,31.087180,-0.718779
2010,63.898308,29.845187,2.286008
2020,64.392726,30.193424,1.966911
2030,64.826697,30.301208,2.286830
2040,65.211863,31.775059,-0.374764
2050,65.617822,30.289221,3.210800
2060,65.995904,32.683333,-1.406344
2070,66.407668,34.020462,-3.769575
2080,66.835237,33.243533,-1.829965
2090,67.271745,32.879469,-0.621419
2100,67.712901,31.305655,3.099455
2110,68.082548,32.101562,1.904795
2120,68.440015,32.793490,0.901379
2130,68.770574,32.148468,2.580706
2140,69.132969,35.109821,-3.116876
2150,69.459157,34.108602,-0.707807
2160,69.822376,34.232452,-0.599884
2170,70.174624,34.554072,-0.831703
2180,70.509112,34.838673,-1.044486
2190,70.837001,35.117308,-1.377438
2200,71.178314,36.167243,-3.014841
2210,71.439601,34.080124,1.584510
2220,71.713307,34.707417,0.650097
2230,71.970870,36.298800,-2.357753
2240,72.220324,34.889082,0.920422
2250,72.482713,34.825917,1.250683
2260,72.744020,37.046863,-3.042688
2270,73.001411,35.067531,1.433787
2280,73.250885,35.395409,0.920846
2290,73.532116,36.263332,-0.606888
2300,73.868801,38.216315,-4.304693
2310,74.163895,36.762418,-1.007015
2320,74.487749,36.214644,0.392840
2330,74.838355,35.222276,2.695427
2340,75.191330,35.630943,2.167088
2350,75.538364,37.581800,-1.462501
2360,75.860592,37.204159,-0.340910
2370,76.175605,36.890826,0.667421
2380,76.457071,38.281236,-1.841705
2390,76.766458,38.006069,-1.157234
2400,77.103068,37.534848,0.110532
2410,77.495463,38.887409,-2.229096
2420,77.872809,38.596652,-1.371003
2430,78.289223,38.286318,-0.423800
2440,78.769002,39.542641,-2.414958
2450,79.140608,41.117994,-5.227482
2460,79.562796,39.590478,-1.654980
2470,79.940228,36.733108,4.645328
2480,80.357527,38.057120,2.361544
2490,80.787683,39.760104,-0.869641
2500,81.239002,40.988830,-2.918734
2510,81.692185,40.194979,-0.824662
2520,82.127928,40.410314,-0.690966
2530,82.549141,41.661555,-2.761074
2540,82.945460,39.031165,3.043783
2550,83.308694,40.412736,0.520219
2560,83.724619,42.344869,-3.057269
2570,84.076328,40.180107,1.645350
2580,84.466047,41.752323,-1.244648
2590,84.828581,41.052304,0.554022
2600,85.212966,41.791903,-0.661178
2610,85.591033,39.945040,3.565987
2620,85.955731,41.193422,1.338063
2630,86.386964,40.659905,2.566052
2640,86.842472,43.110771,-2.020202
2650,87.324435,42.250417,0.129636
2660,87.829833,43.320886,-1.543894
2670,88.334671,42.363364,0.945493
2680,88.819388,42.484127,1.240463
2690,89.283618,43.521121,-0.443376
2700,89.769812,43.012015,1.140943
2710,90.268942,43.256657,1.131254
2720,90.749852,42.617669,2.839602
2730,91.282741,43.200725,2.085393
2740,91.803605,43.957263,1.074153
2750,92.299305,44.250073,1.058604
2760,92.790024,44.385747,1.249953
2770,93.240211,45.752756,-1.199607
2780,93.703740,45.662481,-0.592066
2790,94.167990,44.993622,1.305864
2800,94.563289,45.938705,-0.214531
2810,94.969779,46.271217,-0.551614
2820,95.422362,45.613397,1.286435
2830,95.831934,46.779999,-0.669388
2840,96.270432,47.309416,-1.393613
2850,96.707289,46.781321,0.224568
2860,97.148900,47.680463,-1.213709
2870,97.552840,47.541344,-0.525696
2880,97.985578,47.048456,0.921620
2890,98.401635,47.300093,0.693770
2900,98.842876,47.204930,1.403678
2910,99.288054,46.840963,2.638182
2920,99.686701,47.611538,1.471467
2930,100.108327,49.305665,-1.494130
2940,100.479255,49.098603,-0.582379
2950,100.832454,47.922009,2.300289
2960,101.154698,45.739987,7.207229
2970,101.454162,50.787513,-2.843788
2980,101.753289,48.083069,3.120257
2990,102.033477,48.895665,1.795065
3000,102.284776,50.611328,-1.543517
3010,102.538642,49.425027,1.178140
3020,102.793076,49.774581,0.628192
3030,103.038560,51.335943,-2.276207
3040,103.267153,50.668505,-0.567214
3050,103.505851,48.772300,3.583204
3060,103.726491,52.326223,-3.498672
3070,103.979067,49.410496,2.711447
3080,104.215536,49.970757,1.943744
3090,104.399406,50.539703,1.081952
3100,104.561212,51.503854,-0.647881
3110,104.703430,51.879005,-1.253012
3120,104.848631,52.290234,-1.974263
3130,105.008742,50.660415,1.526737
3140,105.162519,54.086084,-5.266438
3150,105.335250,51.734810,-0.299663
3160,105.522546,52.183440,-1.162864
3170,105.736567,50.676418,2.113063
3180,105.957590,52.539984,-1.599423
3190,106.202713,51.419053,0.959927
3200,106.448429,52.165597,-0.373460
3210,106.685111,53.337729,-2.371337
3220,106.884142,53.437913,-2.304717
3230,107.057728,51.390386,2.162219
3240,107.222116,52.214403,0.636113
3250,107.376486,51.925270,1.472085
3260,107.536880,52.148912,1.212632
3270,107.702364,52.993292,-0.309686
3280,107.875600,52.765467,0.256012
3290,108.049520,53.071481,-0.316721
3300,108.236943,52.911701,0.153532
3310,108.427125,51.436569,3.366922
3320,108.584016,52.094802,2.340142
3330,108.736109,53.675058,-0.835550
3340,108.887607,52.390694,1.979684
3350,109.030783,55.695392,-4.670940
3360,109.197650,53.014818,0.913077
3370,109.332271,51.212512,4.903334
3380,109.445936,53.065355,1.259407
3390,109.534532,52.663783,2.202670
3400,109.608399,53.040465,1.560293
3410,109.691846,53.906983,-0.191761
3420,109.793654,53.365785,1.043130
3430,109.896545,53.791732,0.277716
3440,109.997020,54.153749,-0.416820
3450,110.075160,54.169604,-0.430138
3460,110.117691,54.857280,-1.673753
3470,110.139837,54.644395,-1.233056
3480,110.173610,53.245314,1.654956
3490,110.166970,53.841092,0.407914
3500,110.163394,54.512069,-0.915276
3510,110.162726,54.828829,-1.550701
3520,110.164136,53.265338,1.689378
3530,110.157398,53.576914,1.094207
3540,110.127783,53.387337,1.488083
3550,110.099520,53.887699,0.474551
3560,110.080136,53.259249,1.606980
3570,110.077392,53.498745,1.133930
3580,110.070990,55.169613,-2.238413
3590,110.084876,53.412819,1.258766
3600,110.088725,53.463422,1.177925
3610,110.098461,54.487779,-0.987771
3620,110.123512,56.001612,-4.038781
3630,110.164814,53.658671,0.704357
3640,110.206632,51.325492,5.598154
3650,110.246742,56.212969,-4.363385
3660,110.294958,53.684178,0.794510
3670,110.343525,54.395036,-0.587821
3680,110.381706,53.136980,1.992808
3690,110.418966,52.953774,2.417987
3700,110.453573,54.558136,-0.857567
3710,110.494500,54.823720,-1.359531
3720,110.532249,53.574278,1.197260
3730,110.579904,53.759339,0.896023
3740,110.611329,53.110860,2.237399
3750,110.623219,53.880865,0.605706
3760,110.632920,53.866649,0.638218
3770,110.634967,53.807209,0.856444
3780,110.631296,53.185620,2.169053
3790,110.619573,55.102873,-1.760415
3800,110.608702,53.562709,1.320827
3810,110.595368,53.446556,1.538230
3820,110.588998,54.125307,0.199227
3830,110.577466,53.525987,1.420761
3840,110.545715,54.334538,-0.174995
3850,110.516017,54.538402,-0.625283
3860,110.483633,53.827823,0.885150
3870,110.437830,54.767318,-0.978586
3880,110.370046,53.344798,1.959066
3890,110.281084,53.705890,1.141890
3900,110.203689,54.502623,-0.568473
3910,110.105824,54.849555,-1.329427
3920,110.004834,53.474971,1.418030
3930,109.876734,53.809987,0.608232
3940,109.765569,54.418962,-0.712979
3950,109.640489,53.273248,1.455502
3960,109.492633,57.291612,-6.745521
3970,109.368094,52.204109,3.388631
3980,109.241399,53.498376,0.645538
3990,109.108417,53.977368,-0.413619
4000,108.961323,53.942822,-0.497041
4010,108.786849,52.713348,1.864583
4020,108.593319,53.170830,0.757503
4030,108.376810,52.911477,1.111794
4040,108.168528,53.407202,-0.216509
4050,107.975613,52.890916,0.550550
4060,107.796767,51.824514,2.526914
4070,107.643313,55.394959,-4.829866
4080,107.497879,54.282102,-2.752429
4090,107.360959,52.525686,0.671679
4100,107.231981,53.026590,-0.485804
4110,107.099050,52.654207,0.099918
4120,106.978481,52.491514,0.226595
4130,106.848766,51.119427,2.952372
4140,106.707255,51.764500,1.415805
4150,106.594310,51.773800,1.216987
4160,106.493428,51.996105,0.683499
4170,106.396209,51.464021,1.637760
4180,106.288570,52.013530,0.469761
4190,106.149821,51.093828,2.343121
4200,106.027497,52.448322,-0.579236
4210,105.897955,52.588561,-0.955346
4220,105.763711,50.795003,2.595158
4230,105.606109,52.382576,-0.773429
4240,105.437582,53.254515,-2.697560
4250,105.290492,51.741221,0.251546
4260,105.146270,51.504985,0.627138
4270,105.014958,52.829876,-2.227242
4280,104.888591,52.376920,-1.442041
4290,104.775522,51.212888,0.753666
4300,104.646050,51.755604,-0.389234
4310,104.488989,49.157579,4.819677
4320,104.332102,51.781388,-0.678842
4330,104.182894,50.855744,1.121660
4340,104.032499,50.856634,0.893340
4350,103.886127,52.075824,-1.603270
4360,103.747515,51.376986,-0.336397
4370,103.620540,50.888309,0.551494
4380,103.504749,50.514807,1.237261
4390,103.388044,51.645490,-1.209551
4400,103.280552,52.090115,-2.175309
4410,103.184035,48.778214,4.524069
4420,103.084204,54.626171,-7.466954
4430,103.000202,50.547811,0.726022
4440,102.905312,50.039936,1.759360
4450,102.798684,50.708317,0.242707
4460,102.695939,50.981583,-0.330280
4470,102.575193,51.105573,-0.673557
4480,102.435709,49.541368,2.388609
4490,102.312734,49.643916,2.035150
4500,102.189711,49.503908,2.149417
4510,102.043201,51.138566,-1.265728
4520,101.877185,49.710544,1.478410
4530,101.696107,51.260959,-1.922584
4540,101.516561,49.428140,1.587955
4550,101.330780,49.482748,1.284749
4560,101.143567,50.681317,-1.323291
4570,100.962353,49.609564,0.608445
4580,100.772878,49.043961,1.600994
4590,100.579689,49.612108,0.351652
4600,100.366520,51.219174,-3.181056
4610,100.189706,49.908586,-0.753012
4620,100.016156,49.108321,0.726039
4630,99.821274,48.332134,2.135251
4640,99.632493,49.910563,-1.211396
4650,99.460271,49.878525,-1.354688
4660,99.303174,48.177735,1.925862
4670,99.121825,49.523926,-0.968114
4680,98.930934,49.214149,-0.462624
4690,98.728824,49.456185,-1.143775
4700,98.517440,47.790515,2.070922
4710,98.330689,49.254499,-1.092937
4720,98.139667,49.824050,-2.466040
4730,97.964196,48.700726,-0.322620
4740,97.778867,47.245820,2.347017
4750,97.610313,48.975326,-1.265808
4760,97.427600,48.477231,-0.460847
4770,97.240530,46.524968,3.347135
4780,97.049100,47.602993,1.036503
4790,96.844846,46.487385,3.070819
4800,96.682709,45.926771,4.115375
4810,96.501583,47.346887,1.099154
4820,96.302755,50.344340,-5.132542
4830,96.114647,47.323687,0.779032
4840,95.922618,46.706427,1.867146
4850,95.745923,47.316159,0.324686
4860,95.560514,48.198760,-1.594852
4870,95.384126,46.120934,2.396917
4880,95.194377,48.431438,-2.429006
4890,95.023039,47.297158,-0.323452
4900,94.870353,46.663501,0.766899
4910,94.724215,47.501383,-1.067605
4920,94.588176,44.967210,3.948562
4930,94.469514,46.533991,0.591961
4940,94.353010,47.803198,-2.097822
4950,94.242256,44.964137,3.547315
4960,94.115325,46.646087,0.052439
4970,93.998782,46.453232,0.270762
4980,93.881268,48.317214,-3.651722
4990,93.788252,45.598734,1.733761
5000,93.662788,46.044418,0.746102
5010,93.529175,45.896771,0.910267
5020,93.397025,46.171409,0.246938
5030,93.253670,47.018076,-1.586977
5040,93.113581,46.934037,-1.568669
5050,92.966323,45.230248,1.741729
5060,92.805432,46.440179,-0.857836
5070,92.653762,46.026864,-0.170881
5080,92.481691,45.430070,0.915538
5090,92.301629,45.353959,0.885822
5100,92.122843,46.206628,-1.015971
5110,91.951730,44.424743,2.477721
5120,91.776565,45.491229,0.137550
5130,91.591319,43.940037,3.121541
5140,91.428387,45.929199,-1.111205
5150,91.277093,45.896654,-1.180733
5160,91.117451,45.527064,-0.578124
5170,90.933330,46.355258,-2.373364
5180,90.782835,44.776019,0.620455
5190,90.628290,46.701608,-3.388896
5200,90.497323,45.184556,-0.522748
5210,90.367579,45.429749,-1.098626
5220,90.236783,44.939963,-0.269331
5230,90.101999,43.468457,2.607895
5240,89.976534,45.507361,-1.581800
5250,89.843369,44.035971,1.229784
5260,89.709304,44.287026,0.590024
5270,89.578749,44.854650,-0.665446
5280,89.459593,45.732950,-2.506489
5290,89.333073,44.176593,0.504439
5300,89.190196,45.249542,-1.798419
5310,89.068083,44.685669,-0.738993
5320,88.929496,43.985546,0.497969
5330,88.787656,45.846509,-3.386516
5340,88.646288,44.020689,0.127779
5350,88.507272,44.297135,-0.563721
5360,88.380188,44.197470,-0.555667
5370,88.268604,44.502473,-1.331352
5380,88.167657,43.009920,1.589563
5390,88.050211,42.423568,2.669226
5400,87.942815,44.164231,-0.940736
5410,87.825038,43.980677,-0.672487
5420,87.694511,44.063571,-1.017727
5430,87.564198,42.784613,1.447609
5440,87.430507,43.835495,-0.778402
5450,87.293434,44.079289,-1.462075
5460,87.159054,44.030250,-1.512794
5470,87.053594,43.287066,-0.169141
5480,86.945331,41.868756,2.604576
5490,86.832069,43.881232,-1.589558
5500,86.734326,42.712054,0.689829
5510,86.637049,42.614332,0.813673
5520,86.534432,42.055763,1.867303
5530,86.434998,43.766660,-1.718602
5540,86.328933,41.229521,3.316043
5550,86.217573,43.284300,-0.976998
5560,86.111262,43.510039,-1.612990
5570,86.028092,41.432778,2.483786
5580,85.960481,43.261757,-1.304658
5590,85.882073,42.092464,1.034293
5600,85.811740,42.895788,-0.696194
5610,85.751262,42.724382,-0.465744
5620,85.699934,42.876659,-0.884862
5630,85.651876,41.985019,0.862588
5640,85.606891,41.760762,1.241279
5650,85.578667,40.848692,3.029632
5660,85.549825,41.606253,1.455846
5670,85.542885,42.372770,-0.143209
5680,85.535385,42.641244,-0.696399
5690,85.519958,42.489727,-0.376418
5700,85.489822,43.604481,-2.666201
5710,85.456140,42.113856,0.343794
5720,85.424864,42.727862,-0.946821
5730,85.403243,41.493893,1.518869
5740,85.389430,43.166279,-1.912706
5750,85.376855,41.891040,0.649376
5760,85.364199,43.515496,-2.663808
5770,85.360015,42.430081,-0.417191
